MPU6500 connected...
Device ID: 112
 fexcDes[Hz]   fexc[Hz]     Aexc      Nmeas   Nper  Nsweep_i
 1.0000e+00   1.0000e+00  1.500e+00    6000      3    2000
 1.0912e+00   1.0913e+00  1.437e+00    5498      3     600
 1.1908e+00   1.1907e+00  1.380e+00    5039      3     600
 1.2994e+00   1.2995e+00  1.327e+00    4617      3     600
 1.4180e+00   1.4181e+00  1.279e+00    4231      3     600
 1.5474e+00   1.5472e+00  1.234e+00    3878      3     600
 1.6886e+00   1.6887e+00  1.194e+00    3553      3     600
 1.8426e+00   1.8428e+00  1.157e+00    3256      3     600
 2.0107e+00   2.0107e+00  1.123e+00    2984      3     600
 2.1942e+00   2.1946e+00  1.091e+00    2734      3     600
 2.3944e+00   2.3943e+00  1.063e+00    2506      3     600
 2.6128e+00   2.6132e+00  1.037e+00    2296      3     600
 2.8512e+00   2.8517e+00  1.013e+00    2104      3     600
 3.1114e+00   3.1120e+00  9.905e-01    1928      3     600
 3.3953e+00   3.3956e+00  9.703e-01    1767      3     600
 3.7050e+00   3.7060e+00  9.518e-01    1619      3     600
 4.0431e+00   4.0431e+00  9.349e-01    1484      3     600
 4.4119e+00   4.4118e+00  9.194e-01    1360      3     600
 4.8145e+00   4.8154e+00  9.051e-01    1246      3     600
 5.2538e+00   5.2539e+00  8.921e-01    1142      3     600
 5.7331e+00   5.7307e+00  8.802e-01    1047      3     600
 6.2562e+00   6.2549e+00  8.693e-01    1279      4     600
 6.8270e+00   6.8259e+00  8.592e-01    1172      4     600
 7.4498e+00   7.4488e+00  8.500e-01    1074      4     600
 8.1296e+00   8.1301e+00  8.416e-01    1230      5     600
 8.8713e+00   8.8731e+00  8.339e-01    1127      5     600
 9.6807e+00   9.6805e+00  8.268e-01    1033      5     600
 1.0564e+01   1.0563e+01  8.203e-01    1136      6     600
 1.1528e+01   1.1527e+01  8.144e-01    1041      6     600
 1.2580e+01   1.2579e+01  8.089e-01    1113      7     600
 1.3727e+01   1.3725e+01  8.039e-01    1020      7     600
 1.4980e+01   1.4981e+01  7.994e-01    1068      8     600
 1.6346e+01   1.6349e+01  7.952e-01    1101      9     600
 1.7838e+01   1.7839e+01  7.913e-01    1009      9     600
 1.9465e+01   1.9474e+01  7.878e-01    1027     10     600
 2.1241e+01   2.1236e+01  7.846e-01    1036     11     600
 2.3179e+01   2.3188e+01  7.816e-01    1035     12     600
 2.5294e+01   2.5292e+01  7.789e-01    1028     13     600
 2.7602e+01   2.7613e+01  7.764e-01    1014     14     600
 3.0120e+01   3.0132e+01  7.742e-01    1062     16     600
 3.2868e+01   3.2882e+01  7.721e-01    1034     17     600
 3.5867e+01   3.5857e+01  7.702e-01    1004     18     600
 3.9140e+01   3.9139e+01  7.684e-01    1022     20     600
 4.2711e+01   4.2718e+01  7.668e-01    1030     22     600
 4.6607e+01   4.6602e+01  7.654e-01    1030     24     600
 5.0860e+01   5.0881e+01  7.640e-01    1022     26     600
 5.5500e+01   5.5500e+01  7.628e-01    1009     28     600
 6.0564e+01   6.0547e+01  7.616e-01    1024     31     600
 6.6090e+01   6.6084e+01  7.606e-01    1029     34     600
 7.2119e+01   7.2125e+01  7.597e-01    1026     37     600
 7.8699e+01   7.8663e+01  7.588e-01    1017     40     600
 8.5880e+01   8.5914e+01  7.580e-01    1001     43     600
 9.3715e+01   9.3719e+01  7.573e-01    1003     47     600
 1.0227e+02   1.0226e+02  7.566e-01    1017     52     600
 1.1160e+02   1.1155e+02  7.560e-01    1004     56     600
 1.2178e+02   1.2176e+02  7.554e-01    1002     61     600
 1.3289e+02   1.3294e+02  7.549e-01    1008     67     600
 1.4501e+02   1.4499e+02  7.544e-01    1007     73     600
 1.5824e+02   1.5826e+02  7.540e-01    1011     80     600
 1.7268e+02   1.7262e+02  7.536e-01    1008     87     600
 1.8844e+02   1.8849e+02  7.532e-01    1008     95     600
 2.0563e+02   2.0559e+02  7.529e-01    1002    103     600
 2.2439e+02   2.2443e+02  7.526e-01    1007    113     600
 2.4486e+02   2.4478e+02  7.523e-01    1005    123     600
 2.6720e+02   2.6720e+02  7.521e-01    1003    134     600
 2.9158e+02   2.9171e+02  7.518e-01    1001    146     600
 3.1819e+02   3.1809e+02  7.516e-01    1006    160     600
 3.4722e+02   3.4731e+02  7.514e-01    1002    174     600
 3.7890e+02   3.7886e+02  7.512e-01    1003    190     600
 4.1347e+02   4.1359e+02  7.511e-01    1001    207     600
 4.5119e+02   4.5110e+02  7.509e-01    1002    226     600
 4.9236e+02   4.9252e+02  7.508e-01    1003    247     600
 5.3728e+02   5.3746e+02  7.506e-01    1001    269     600
 5.8630e+02   5.8624e+02  7.505e-01    1003    294     600
 6.3979e+02   6.4000e+02  7.504e-01    1000    320     600
 6.9817e+02   6.9791e+02  7.503e-01    1003    350     600
 7.6187e+02   7.6200e+02  7.502e-01    1000    381     600
 8.3138e+02   8.3117e+02  7.501e-01    1001    416     600
 9.0723e+02   9.0709e+02  7.501e-01    1001    454     600
 9.9000e+02   9.9002e+02  7.500e-01    1002    496     600
 Number of data points :       170656
 Measurment time in sec:        85.33
MiniSegway running...
Averaged acc offset: 0.1951941f, -0.1510179f, 0.0000000
   fexc[Hz]       Ureal         Uimag         Yreal         Yimag         Rreal         Rimag     T avg. mus   Cntr
 1.00000e+00 -1.991522e-01  2.030975e+00  2.251889e-01  1.479847e+00  2.920608e-07  1.500000e+00  5.0000e+02    0
 1.09131e+00 -1.712199e+00 -9.495329e-01 -1.393939e+00 -3.344991e-01 -1.323617e+00 -5.599483e-01  5.0001e+02    1
 1.19071e+00  1.676255e+00 -8.609554e-01  9.872278e-01 -9.580472e-01  1.146010e+00 -7.683619e-01  5.0000e+02    2
 1.29955e+00 -5.573623e-01  1.730037e+00  1.403191e-02  1.322205e+00 -2.448528e-01  1.304164e+00  5.0000e+02    3
 1.41810e+00 -4.364907e-01 -1.693211e+00 -7.297286e-01 -1.045955e+00 -4.916613e-01 -1.180347e+00  5.0000e+02    4
 1.54719e+00  9.502118e-01  1.412553e+00  1.016842e+00  6.893231e-01  8.338097e-01  9.103334e-01  4.9999e+02    5
 1.68871e+00 -1.028073e+00 -1.293391e+00 -1.051227e+00 -5.509350e-01 -8.836697e-01 -8.026978e-01  5.0000e+02    6
 1.84275e+00  7.294811e-01  1.435525e+00  9.173922e-01  6.916896e-01  6.968947e-01  9.231383e-01  5.0001e+02    7
 2.01072e+00  5.259712e-02 -1.566312e+00 -4.925772e-01 -9.978814e-01 -1.748840e-01 -1.108913e+00  5.0001e+02    8
 2.19459e+00 -1.179347e+00  9.921967e-01 -3.547882e-01  1.020522e+00 -6.737636e-01  8.585217e-01  5.0001e+02    9
 2.39425e+00  1.329102e+00  7.266371e-01  1.046331e+00 -8.736242e-02  1.022035e+00  2.915584e-01  5.0001e+02   10
 2.61324e+00  7.500090e-01 -1.290719e+00 -1.116805e-01 -1.015895e+00  2.913836e-01 -9.947330e-01  5.0001e+02   11
 2.85171e+00 -8.210824e-01 -1.230752e+00 -9.536425e-01 -2.865582e-01 -7.590951e-01 -6.700345e-01  5.0001e+02   12
 3.11203e+00 -1.383882e+00 -4.885991e-01 -8.904732e-01  3.866142e-01 -9.886629e-01 -6.005705e-02  5.0002e+02   13
 3.39559e+00 -1.427569e+00 -3.004901e-01 -7.802498e-01  5.358408e-01 -9.664799e-01  8.646603e-02  5.0000e+02   14
 3.70599e+00 -1.173652e+00 -8.692036e-01 -8.973970e-01  2.191748e-01 -9.033030e-01 -3.000125e-01  5.0000e+02   15
 4.04313e+00  1.567939e-01 -1.456722e+00 -6.722676e-01 -6.017102e-01 -2.130912e-01 -9.103212e-01  5.0002e+02   16
 4.41176e+00  1.433078e+00  3.527156e-01  6.251242e-01 -6.208084e-01  9.133008e-01 -1.058439e-01  5.0002e+02   17
 4.81541e+00 -1.332945e+00  6.697042e-01 -6.896076e-04  8.608761e-01 -6.016234e-01  6.762723e-01  5.0002e+02   18
 5.25394e+00  1.412047e+00 -5.680692e-01 -2.610005e-03 -8.401965e-01  6.352431e-01 -6.263967e-01  5.0003e+02   19
 5.73066e+00 -1.318354e+00 -8.276840e-01 -6.157796e-01  5.398098e-01 -8.704204e-01 -1.311737e-01  5.0000e+02   20
 6.25489e+00 -1.223352e+00  1.027022e+00  3.814114e-01  6.977144e-01 -3.781891e-01  7.826888e-01  5.0000e+02   21
 6.82594e+00 -9.878463e-01  1.316029e+00  5.672454e-01  5.227279e-01 -1.809016e-01  8.399684e-01  5.0003e+02   22
 7.44879e+00 -1.694868e+00  6.047992e-02  2.417679e-02  7.428600e-01 -7.573110e-01  3.860474e-01  5.0003e+02   23
 8.13008e+00  8.576546e-01 -1.532980e+00 -6.557661e-01 -2.849604e-01  6.234389e-02 -8.392726e-01  5.0002e+02   24
 8.87311e+00 -1.326229e+00  1.236839e+00  5.534779e-01  3.944887e-01 -3.180380e-01  7.708185e-01  5.0000e+02   25
 9.68054e+00  9.849014e-01  1.605657e+00  4.223157e-01 -4.921554e-01  6.828650e-01  4.661387e-01  5.0000e+02   26
 1.05634e+01  6.480128e-01  1.836988e+00  4.407371e-01 -4.176275e-01  5.542990e-01  6.047038e-01  5.0003e+02   27
 1.15274e+01 -2.000165e+00 -9.733136e-02  2.595290e-01  5.072696e-01 -7.671415e-01  2.732987e-01  5.0000e+02   28
 1.25786e+01  1.498231e+00  1.416102e+00  6.713784e-02 -5.248612e-01  7.494143e-01  3.045340e-01  5.0000e+02   29
 1.37255e+01  1.961869e+00  8.125052e-01 -1.683318e-01 -4.605371e-01  8.031519e-01  3.558389e-02  5.0003e+02   30
 1.49813e+01 -1.427332e+00  1.649712e+00  4.427128e-01 -6.692598e-02 -3.085029e-01  7.374239e-01  5.0003e+02   31
 1.63488e+01  2.088689e+00  7.903680e-01 -2.379393e-01 -3.289944e-01  7.926849e-01  6.272950e-02  5.0000e+02   32
 1.78394e+01  9.685977e-01  2.054859e+00  5.069428e-03 -3.634484e-01  5.013315e-01  6.122607e-01  5.0000e+02   33
 1.94742e+01  2.976724e-01 -2.277734e+00 -1.389825e-01  2.892599e-01 -6.009461e-02 -7.854977e-01  5.0000e+02   34
 2.12355e+01  1.587706e+00 -1.668262e+00 -2.249867e-01  1.645245e-01  4.381697e-01 -6.508437e-01  4.9998e+02   35
 2.31884e+01 -2.241099e+00 -3.938502e-01  2.248914e-01  4.158169e-02 -7.806571e-01 -3.874862e-02  5.0000e+02   36
 2.52918e+01  6.371582e-01 -2.152934e+00 -2.964416e-02  1.860209e-01  1.456108e-01 -7.651944e-01  5.0003e+02   37
 2.76134e+01 -2.936352e-01 -2.197980e+00  5.936258e-02  1.422178e-01 -1.659688e-01 -7.584838e-01  5.0003e+02   38
 3.01318e+01 -1.677119e+00  1.407129e+00  5.713068e-02 -1.090124e-01 -5.559444e-01  5.387445e-01  5.0003e+02   39
 3.28820e+01  1.164000e+00 -1.835511e+00 -6.399651e-03  9.855478e-02  3.701449e-01 -6.775620e-01  5.0003e+02   40
 3.58566e+01  1.277469e+00  1.748632e+00 -7.580423e-02 -2.514207e-02  4.895707e-01  5.945560e-01  5.0003e+02   41
 3.91389e+01 -1.731281e+00  1.294066e+00  1.190366e-02 -6.243873e-02 -5.911304e-01  4.909577e-01  5.0003e+02   42
 4.27184e+01 -9.752099e-01 -1.931352e+00  4.807898e-02  1.291919e-02 -3.765687e-01 -6.679844e-01  5.0003e+02   43
 4.66019e+01  1.950944e+00  9.507407e-01 -3.511569e-02  1.957077e-02  6.997829e-01  3.099468e-01  5.0003e+02   44
 5.08806e+01 -7.632204e-01 -2.044259e+00  3.146853e-02  5.550864e-03 -2.868384e-01 -7.081067e-01  5.0003e+02   45
 5.55005e+01 -1.304358e+00 -1.757120e+00  2.427500e-02 -6.903089e-03 -4.640429e-01 -6.053761e-01  5.0000e+02   46
 6.05469e+01  2.081648e+00  7.264063e-01 -1.269234e-02  1.613370e-02  7.197717e-01  2.490504e-01  4.9998e+02   47
 6.60836e+01  2.120626e+00  6.267018e-01 -6.432192e-03  1.410907e-02  7.268597e-01  2.240333e-01  5.0000e+02   48
 7.21248e+01  3.410183e-01 -2.197189e+00  1.131323e-02  2.587494e-03  1.368750e-01 -7.472180e-01  5.0003e+02   49
 7.86627e+01 -1.719233e+00  1.426392e+00 -5.756557e-03 -6.904518e-03 -6.052379e-01  4.576491e-01  5.0000e+02   50
 8.59141e+01  2.009832e+00  9.950098e-01 -2.582849e-03  6.173063e-03  6.560777e-01  3.795997e-01  5.0000e+02   51
 9.37188e+01  2.235204e+00  2.072542e-01  1.449708e-03  5.337996e-03  7.452086e-01  1.345189e-01  5.0000e+02   52
 1.02262e+02 -1.885317e+00  1.225858e+00 -3.411814e-03 -1.849059e-03 -6.751637e-01  3.414265e-01  5.0001e+02   53
 1.11554e+02 -2.225958e+00  3.295836e-01 -1.879413e-03 -2.434703e-03 -7.558986e-01  1.051124e-02  5.0003e+02   54
 1.21756e+02 -2.205606e+00  4.348707e-01 -1.700562e-03 -1.592023e-03 -7.549281e-01  2.691409e-02  5.0003e+02   55
 1.32937e+02 -1.101793e+00 -1.958787e+00  1.535515e-03 -3.362728e-04 -2.410143e-01 -7.153808e-01  5.0003e+02   56
 1.44985e+02 -1.336706e+00  1.790452e+00 -1.508179e-03 -1.788416e-04 -5.706574e-01  4.934565e-01  5.0000e+02   57
 1.58259e+02  1.117178e+00 -1.920468e+00  8.104965e-04 -3.574945e-04  5.269515e-01 -5.392739e-01  5.0000e+02   58
 1.72619e+02 -2.136152e+00  5.432591e-01 -1.026647e-03 -1.326677e-04 -7.532355e-01 -2.314170e-02  5.0003e+02   59
 1.88492e+02 -1.579353e+00 -1.508251e+00  4.089924e-05 -6.758141e-04 -3.564210e-01 -6.635596e-01  5.0003e+02   60
 2.05589e+02 -3.021920e-01 -2.136992e+00  7.449224e-05 -3.718382e-04  1.581374e-01 -7.360985e-01  5.0003e+02   61
 2.24429e+02  3.460054e-01  2.097935e+00 -1.136864e-04  4.027945e-04 -1.703875e-01  7.330450e-01  5.0000e+02   62
 2.44776e+02 -1.704265e+00 -1.207994e+00 -2.796173e-04 -2.455198e-04 -3.743168e-01 -6.525760e-01  5.0000e+02   63
 2.67198e+02 -1.552113e+00  1.331205e+00 -1.879821e-04  8.498153e-05 -7.321392e-01  1.719114e-01  5.0000e+02   64
 2.91708e+02  4.275385e-01  1.946293e+00 -4.074155e-05  1.387622e-04 -2.291818e-01  7.160321e-01  5.0001e+02   65
 3.18091e+02 -8.495255e-01 -1.736793e+00 -5.278038e-06  4.707497e-05  9.075499e-02 -7.461025e-01  5.0003e+02   66
 3.47305e+02 -1.846714e+00  2.500505e-01  9.561669e-06  9.988687e-05 -6.612037e-01 -3.569547e-01  5.0003e+02   67
 3.78863e+02 -1.409285e+00  1.094196e+00 -3.626955e-06  4.077109e-05 -7.509743e-01 -1.933936e-02  5.0000e+02   68
 4.13586e+02 -3.013626e-02  1.693042e+00 -4.545627e-05  2.631867e-05 -5.195400e-01  5.423695e-01  5.0000e+02   69
 4.51098e+02  1.499315e+00 -5.347388e-01  4.874530e-05 -3.234170e-05  6.707422e-01  3.375866e-01  5.0003e+02   70
 4.92522e+02 -1.462247e+00  2.047549e-01 -1.359460e-04  7.362089e-05 -5.561053e-01 -5.043772e-01  5.0000e+02   71
 5.37463e+02  1.315225e+00 -2.990795e-01  1.312503e-06 -3.468813e-07  5.631115e-01  4.963503e-01  5.0000e+02   72
 5.86241e+02 -1.206416e+00 -6.320281e-02 -2.986298e-05  3.800725e-05 -3.592179e-01 -6.589735e-01  5.0000e+02   73
 6.40000e+02 -9.571086e-01  4.348167e-01 -2.810586e-05  1.658767e-05 -5.877652e-01 -4.665344e-01  4.9998e+02   74
 6.97906e+02  6.960881e-01  5.412285e-01 -4.737805e-06 -2.027918e-05 -1.990865e-01  7.234229e-01  5.0000e+02   75
 7.62000e+02  6.136590e-01  3.239850e-01  1.636642e-06  5.377188e-06 -1.344676e-01  7.380778e-01  5.0003e+02   76
 8.31169e+02  4.775335e-01  1.167637e-01  6.187602e-06 -1.082125e-06 -1.878217e-02  7.499097e-01  5.0000e+02   77
 9.07093e+02  2.020516e-02 -2.694772e-01 -9.755429e-06  4.007990e-06  7.493893e-01 -3.193161e-02  5.0001e+02   78
 9.90020e+02 -1.105422e-02  2.682879e-02  1.291893e-06 -8.045481e-08 -6.971049e-01 -2.766672e-01  5.0003e+02   79
